time,temperature probe
0,26.799448415172720306513409961685824
1,26.799448415172720306513409961685824
2,26.799448415172720306513409961685824
3,26.799448415172720306513409961685824
4,26.709286782298546845124282982791587
5,26.709286782298546845124282982791587
6,26.709286782298546845124282982791587
7,26.709286782298546845124282982791587
8,26.709286782298546845124282982791587
9,26.709286782298546845124282982791587
10,26.709286782298546845124282982791587
11,26.709286782298546845124282982791587
12,26.709286782298546845124282982791587
13,26.618985920515419847328244274809160
14,26.618985920515419847328244274809160
15,26.528545702976190476190476190476190
16,26.528545702976190476190476190476190
17,26.437966003798326996197718631178707
18,26.347246698054762808349146110056926
19,26.165388771885406427221172022684310
20,26.074249906301886792452830188679245
21,25.982970943819623352165725047080979
22,25.799992247927842401500938086303940
23,25.616451732724299065420560747663551
24,25.340085502152862453531598513011152
25,25.062449967435896487985212569316081
26,24.876652939714438305709023941068140
27,24.690289542701834862385321100917431
28,24.503358906131005484460694698354662
29,24.315860172416357012750455373406193
30,24.221897504545454545454545454545455
31,24.033545044317681159420289855072464
32,23.844622396965487364620938628158845
33,23.655128747508489208633093525179856
34,23.465063292650609318996415770609319
35,23.178891246217504456327985739750446
36,22.987392838244653641207815275310835
37,22.699067750679010600706713780918728
38,22.409447444600667838312829525483304
39,21.923861958428710801393728222996516
40,21.728615934697777777777777777777778
41,21.532790671459930795847750865051903
42,21.336385481103448275862068965517241
43,21.237965200965955249569707401032702
44,20.941832615684383561643835616438356
45,20.743683612012832764505119453924915
46,20.644390681259386712095400340715503
47,20.544952023690884353741496598639456
48,20.445367559339524617996604414261460
49,20.345637208779661016949152542372881
50,20.245760893123214890016920473773266
51,20.145738534015135135135135135135135
52,20.045570053628903878583473861720067
53,19.945255374662087542087542087542088
54,19.844794420331932773109243697478992
55,19.643433381022881072026800670016750
56,19.542533145037859531772575250836120
57,19.441486331668747913188647746243740
58,19.340292866666666666666666666666667
59,19.238952676276905158069883527454243
60,19.035831826761757877280265339966833
61,18.934051022561059602649006622516556
62,18.730048296176105610561056105610561
63,18.627826231772751235584843492586491
64,18.422940348499474548440065681444992
65,18.320276390196721311475409836065574
66,18.217464995255351882160392798690671
67,18.114506095094379084967320261437908
68,18.114506095094379084967320261437908
69,18.011399621580326264274061990212072
70,17.908145507023583061889250814332248
71,17.908145507023583061889250814332248
72,17.804743684174796747967479674796748
73,17.701194086221298701298701298701299
74,17.701194086221298701298701298701299
75,17.597496646783565640194489465153971
76,17.597496646783565640194489465153971
77,17.493651299911715210355987055016181
78,17.493651299911715210355987055016181
79,17.389657980082035541195476575121163
80,17.389657980082035541195476575121163
81,17.285516622193548387096774193548387
82,17.285516622193548387096774193548387
83,17.181227161564605475040257648953301
84,17.181227161564605475040257648953301
85,17.076789533929517684887459807073955
86,17.076789533929517684887459807073955
87,16.972203675435216693418940609951846
88,16.972203675435216693418940609951846
89,16.867469522637948717948717948717949
90,16.867469522637948717948717948717949
91,16.76258701250
92,16.76258701250
93,16.657556082386453674121405750798722
94,16.657556082386453674121405750798722
95,16.552376670061977671451355661881978
96,16.552376670061977671451355661881978
97,16.447048713687643312101910828025478
98,16.447048713687643312101910828025478
99,16.341572151817774244833068362480127
100,16.341572151817774244833068362480127
101,16.235946923396825396825396825396825
102,16.130172967756291600633914421553090
103,16.130172967756291600633914421553090
104,16.024250224611645569620253164556962
105,16.024250224611645569620253164556962
106,16.024250224611645569620253164556962
107,15.918178634059304897314375987361769
108,15.918178634059304897314375987361769
109,15.918178634059304897314375987361769
110,15.811958136573627760252365930599369
111,15.811958136573627760252365930599369
112,15.811958136573627760252365930599369
113,15.705588673003937007874015748031496
114,15.705588673003937007874015748031496
115,15.599070184571572327044025157232704
116,15.599070184571572327044025157232704
117,15.599070184571572327044025157232704
118,15.599070184571572327044025157232704
119,15.599070184571572327044025157232704
120,15.492402612866970172684458398744113
121,15.492402612866970172684458398744113
122,15.492402612866970172684458398744113
123,15.492402612866970172684458398744113
124,15.385585899846771159874608150470219
125,15.385585899846771159874608150470219
126,15.385585899846771159874608150470219
127,15.385585899846771159874608150470219
128,15.385585899846771159874608150470219
129,15.385585899846771159874608150470219
130,15.385585899846771159874608150470219
131,15.385585899846771159874608150470219
132,15.385585899846771159874608150470219
133,15.385585899846771159874608150470219
134,15.385585899846771159874608150470219
135,15.278619987830954616588419405320814
136,15.278619987830954616588419405320814
137,15.17150481950
138,15.17150481950
139,15.17150481950
140,15.064240337892074882995319812792512
141,15.064240337892074882995319812792512
142,14.956826486400249221183800623052960
143,14.741550449095155279503105590062112
144,14.092131680769230769230769230769231
145,13.765399865167442572741194486983155
146,13.546828630576335877862595419847328
147,13.437317849315121951219512195121951
148,13.327656889837229832572298325722983
149,13.217845700855683890577507598784195
150,13.217845700855683890577507598784195
151,13.107884231394810318664643399089530
152,13.107884231394810318664643399089530
153,12.997772430787878787878787878787879
154,12.997772430787878787878787878787879
155,12.997772430787878787878787878787879
156,12.887510248674765506807866868381241
157,12.887510248674765506807866868381241
158,12.887510248674765506807866868381241
159,12.777097634999637462235649546827795
160,12.777097634999637462235649546827795
161,12.777097634999637462235649546827795
162,12.777097634999637462235649546827795
163,12.666534540008657616892911010558069
164,12.666534540008657616892911010558069
165,12.666534540008657616892911010558069
166,12.666534540008657616892911010558069
167,12.666534540008657616892911010558069
168,12.555820914247710843373493975903614
169,12.555820914247710843373493975903614
170,12.555820914247710843373493975903614
171,12.555820914247710843373493975903614
172,12.555820914247710843373493975903614
173,12.555820914247710843373493975903614
174,12.555820914247710843373493975903614
175,12.444956708560150375939849624060150
176,12.444956708560150375939849624060150
177,12.444956708560150375939849624060150
178,12.444956708560150375939849624060150
179,12.444956708560150375939849624060150
180,12.333941874084564564564564564564565
181,12.333941874084564564564564564564565
182,12.333941874084564564564564564564565
183,12.222776362252563718140929535232384
184,12.222776362252563718140929535232384
185,12.111460124786586826347305389221557
186,12.111460124786586826347305389221557
187,11.999993113697727952167414050822123
188,11.999993113697727952167414050822123
189,11.888375281283582089552238805970149
190,11.888375281283582089552238805970149
191,11.776606580126110283159463487332340
192,11.776606580126110283159463487332340
193,11.664686963089523809523809523809524
194,11.552616383318187221396731054977712
195,11.440394794234540059347181008902077
196,11.440394794234540059347181008902077
197,11.328022149537037037037037037037037
198,11.328022149537037037037037037037037
199,11.215498403198106508875739644970414
200,11.215498403198106508875739644970414
201,11.215498403198106508875739644970414
202,11.102823509462127031019202363367799
203,11.102823509462127031019202363367799
204,11.102823509462127031019202363367799
205,10.989997422843421828908554572271386
206,10.989997422843421828908554572271386
207,10.877020098124270986745213549337261
208,10.877020098124270986745213549337261
209,10.763891490352941176470588235294118
210,10.763891490352941176470588235294118
211,10.763891490352941176470588235294118
212,10.763891490352941176470588235294118
213,10.650611554841732745961820851688693
214,10.650611554841732745961820851688693
215,10.650611554841732745961820851688693
216,10.650611554841732745961820851688693
217,10.537180247165043988269794721407625
218,10.537180247165043988269794721407625
219,10.423597523157452415812591508052709
220,10.423597523157452415812591508052709
221,10.309863338911812865497076023391813
222,10.309863338911812865497076023391813
223,10.309863338911812865497076023391813
224,10.309863338911812865497076023391813
225,10.195977650777372262773722627737226
226,10.195977650777372262773722627737226
227,10.195977650777372262773722627737226
228,10.195977650777372262773722627737226
229,10.195977650777372262773722627737226
230,10.195977650777372262773722627737226
231,10.195977650777372262773722627737226
232,10.081940415357900874635568513119534
233,10.081940415357900874635568513119534
234,10.081940415357900874635568513119534
235,10.081940415357900874635568513119534
236,10.081940415357900874635568513119534
237,10.081940415357900874635568513119534
238,10.081940415357900874635568513119534
239,9.967751589509839883551673944687045
240,9.967751589509839883551673944687045
241,9.967751589509839883551673944687045
242,9.967751589509839883551673944687045
243,9.967751589509839883551673944687045
244,9.967751589509839883551673944687045
245,9.967751589509839883551673944687045
246,9.967751589509839883551673944687045
247,9.967751589509839883551673944687045
248,9.967751589509839883551673944687045
249,9.853411130340465116279069767441860
250,9.853411130340465116279069767441860
251,9.853411130340465116279069767441860
252,9.853411130340465116279069767441860
253,9.853411130340465116279069767441860
254,9.738918995206066763425253991291727
255,9.738918995206066763425253991291727
256,9.624275141710144927536231884057971
257,9.624275141710144927536231884057971
258,9.624275141710144927536231884057971
259,9.624275141710144927536231884057971
260,9.624275141710144927536231884057971
261,9.509479527701620839363241678726483
262,9.509479527701620839363241678726483
263,9.509479527701620839363241678726483
264,9.509479527701620839363241678726483
265,9.509479527701620839363241678726483
266,9.509479527701620839363241678726483
267,9.394532111273063583815028901734104
268,9.394532111273063583815028901734104
269,9.394532111273063583815028901734104
270,9.394532111273063583815028901734104
271,9.394532111273063583815028901734104
272,9.394532111273063583815028901734104
273,9.279432850758932178932178932178932
274,9.279432850758932178932178932178932
275,9.279432850758932178932178932178932
276,9.279432850758932178932178932178932
277,9.279432850758932178932178932178932
278,9.164181704733832853025936599423631
279,9.164181704733832853025936599423631
280,9.164181704733832853025936599423631
281,9.164181704733832853025936599423631
282,9.164181704733832853025936599423631
283,9.164181704733832853025936599423631
284,9.164181704733832853025936599423631
285,9.164181704733832853025936599423631
286,9.164181704733832853025936599423631
287,9.164181704733832853025936599423631
288,9.164181704733832853025936599423631
289,9.164181704733832853025936599423631
290,9.048778632010791366906474820143885
291,9.048778632010791366906474820143885
292,9.048778632010791366906474820143885
293,9.048778632010791366906474820143885
294,9.048778632010791366906474820143885
295,9.048778632010791366906474820143885
296,9.048778632010791366906474820143885
297,9.048778632010791366906474820143885
298,9.048778632010791366906474820143885
299,9.048778632010791366906474820143885
300,9.048778632010791366906474820143885
301,9.048778632010791366906474820143885
302,8.933223591639540229885057471264368
303,9.048778632010791366906474820143885
304,8.933223591639540229885057471264368
305,8.933223591639540229885057471264368
306,8.933223591639540229885057471264368
307,8.933223591639540229885057471264368
308,9.048778632010791366906474820143885
309,9.048778632010791366906474820143885
310,9.048778632010791366906474820143885
311,9.048778632010791366906474820143885
312,9.048778632010791366906474820143885
313,9.048778632010791366906474820143885
314,9.048778632010791366906474820143885
315,9.048778632010791366906474820143885
316,9.048778632010791366906474820143885
317,9.048778632010791366906474820143885
318,9.048778632010791366906474820143885
319,9.048778632010791366906474820143885
320,9.048778632010791366906474820143885
321,9.048778632010791366906474820143885
322,9.048778632010791366906474820143885
323,8.933223591639540229885057471264368
324,9.048778632010791366906474820143885
325,8.933223591639540229885057471264368
326,8.933223591639540229885057471264368
327,8.933223591639540229885057471264368
328,8.933223591639540229885057471264368
329,8.933223591639540229885057471264368
330,8.933223591639540229885057471264368
331,8.933223591639540229885057471264368
332,8.933223591639540229885057471264368
333,8.933223591639540229885057471264368
334,8.933223591639540229885057471264368
335,8.933223591639540229885057471264368
336,8.817516542904820659971305595408895
337,8.817516542904820659971305595408895
338,8.817516542904820659971305595408895
339,8.817516542904820659971305595408895
340,8.817516542904820659971305595408895
341,8.817516542904820659971305595408895
342,8.817516542904820659971305595408895
343,8.817516542904820659971305595408895
344,8.817516542904820659971305595408895
345,8.817516542904820659971305595408895
346,8.817516542904820659971305595408895
347,8.701657445324699140401146131805158
348,8.817516542904820659971305595408895
349,8.817516542904820659971305595408895
350,8.817516542904820659971305595408895
351,8.701657445324699140401146131805158
352,8.817516542904820659971305595408895
353,8.817516542904820659971305595408895
354,8.701657445324699140401146131805158
355,8.701657445324699140401146131805158
356,8.817516542904820659971305595408895
357,8.701657445324699140401146131805158
358,8.817516542904820659971305595408895
359,8.817516542904820659971305595408895
360,8.701657445324699140401146131805158
361,8.701657445324699140401146131805158
362,8.701657445324699140401146131805158
363,8.817516542904820659971305595408895
364,8.701657445324699140401146131805158
365,8.701657445324699140401146131805158
366,8.817516542904820659971305595408895
367,8.701657445324699140401146131805158
368,8.701657445324699140401146131805158
369,8.701657445324699140401146131805158
370,8.701657445324699140401146131805158
371,8.701657445324699140401146131805158
372,8.701657445324699140401146131805158
373,8.701657445324699140401146131805158
374,8.701657445324699140401146131805158
375,8.585646258648898426323319027181688
376,8.701657445324699140401146131805158
377,8.701657445324699140401146131805158
378,8.701657445324699140401146131805158
379,8.701657445324699140401146131805158
380,8.701657445324699140401146131805158
381,8.701657445324699140401146131805158
382,8.701657445324699140401146131805158
383,8.701657445324699140401146131805158
384,8.701657445324699140401146131805158
385,8.585646258648898426323319027181688
386,8.585646258648898426323319027181688
387,8.701657445324699140401146131805158
388,8.701657445324699140401146131805158
389,8.701657445324699140401146131805158
390,8.701657445324699140401146131805158
391,8.585646258648898426323319027181688
392,8.585646258648898426323319027181688
393,8.585646258648898426323319027181688
394,8.585646258648898426323319027181688
395,8.585646258648898426323319027181688
396,8.585646258648898426323319027181688
397,8.585646258648898426323319027181688
398,8.585646258648898426323319027181688
399,8.469482942857142857142857142857143
400,8.585646258648898426323319027181688
401,8.585646258648898426323319027181688
402,8.469482942857142857142857142857143
403,8.585646258648898426323319027181688
404,8.469482942857142857142857142857143
405,8.585646258648898426323319027181688
406,8.469482942857142857142857142857143
407,8.469482942857142857142857142857143
408,8.353167458157517831669044222539230
409,8.469482942857142857142857142857143
410,8.469482942857142857142857142857143
411,8.469482942857142857142857142857143
412,8.353167458157517831669044222539230
413,8.469482942857142857142857142857143
414,8.469482942857142857142857142857143
415,8.353167458157517831669044222539230
416,8.353167458157517831669044222539230
417,8.469482942857142857142857142857143
418,8.353167458157517831669044222539230
419,8.353167458157517831669044222539230
420,8.353167458157517831669044222539230
421,8.353167458157517831669044222539230
422,8.236699764984843304843304843304843
423,8.353167458157517831669044222539230
424,8.353167458157517831669044222539230
425,8.236699764984843304843304843304843
426,8.353167458157517831669044222539230
427,8.353167458157517831669044222539230
428,8.353167458157517831669044222539230
429,8.469482942857142857142857142857143
430,8.469482942857142857142857142857143
431,8.469482942857142857142857142857143
432,8.469482942857142857142857142857143
433,8.469482942857142857142857142857143
434,8.469482942857142857142857142857143
435,8.469482942857142857142857142857143
436,8.469482942857142857142857142857143
437,8.469482942857142857142857142857143
438,8.469482942857142857142857142857143
439,8.353167458157517831669044222539230
440,8.469482942857142857142857142857143
441,8.469482942857142857142857142857143
442,8.469482942857142857142857142857143
443,8.353167458157517831669044222539230
444,8.469482942857142857142857142857143
445,8.469482942857142857142857142857143
446,8.469482942857142857142857142857143
447,8.469482942857142857142857142857143
448,8.469482942857142857142857142857143
449,8.353167458157517831669044222539230
450,8.353167458157517831669044222539230
451,8.353167458157517831669044222539230
452,8.353167458157517831669044222539230
453,8.353167458157517831669044222539230
454,8.353167458157517831669044222539230
455,8.353167458157517831669044222539230
456,8.353167458157517831669044222539230
457,8.353167458157517831669044222539230
458,8.353167458157517831669044222539230
459,8.353167458157517831669044222539230
460,8.236699764984843304843304843304843
461,8.353167458157517831669044222539230
462,8.353167458157517831669044222539230
463,8.353167458157517831669044222539230
464,8.353167458157517831669044222539230
465,8.469482942857142857142857142857143
466,8.353167458157517831669044222539230
467,8.353167458157517831669044222539230
468,8.469482942857142857142857142857143
469,8.353167458157517831669044222539230
470,8.353167458157517831669044222539230
471,8.353167458157517831669044222539230
472,8.469482942857142857142857142857143
473,8.469482942857142857142857142857143
474,8.469482942857142857142857142857143
475,8.236699764984843304843304843304843
476,8.353167458157517831669044222539230
477,8.353167458157517831669044222539230
478,8.353167458157517831669044222539230
479,8.469482942857142857142857142857143
480,8.353167458157517831669044222539230
481,8.353167458157517831669044222539230
482,8.353167458157517831669044222539230
483,8.236699764984843304843304843304843
484,8.353167458157517831669044222539230
485,8.236699764984843304843304843304843
